Number of simulated electron trajectories = 10000 
Number of regions in the specimen = 2 

Electron incident energy = 30.000000 
Beam Current = 1.000000e-010 (A) 
Acquisition Time = 100.000000 (S) 


The negative Z axis is the e Beam axis 
A positive tilt angle gives a negative projection on X Axis 
The Y axis is the rotation axis 

Tilt angle = 0.000000 (Deg.) 
Angle between X-Ray detector axis and specimen normal = 50.000000 (Deg.) 
Angle between X-Ray detector  and x axis on the X-Y plane = 90.000000 (Deg.) 
Take Off Angle at Normal Incidence = 40.000000 (Deg.) 
Effective Take Off Angle = 40.000000 (Deg.) 


Thickness of Be window = 0.000000 (um) 
Thickness of Al window = 0.000000 (um) 
Thickness of Ti window = 0.000000 (um) 
Thickness of Oil = 0.000000 (um) 
Thickness of Moxtek = 0.300000 (um) 
Thickness of H2O = 0.000000 (um) 
Thickness of air path = 0.000000 (cm) 
Radius of detector crystal = 3.000000 (mm) 
Distance e-beam to x-ray detector = 4.000000 (cm) 


Number of windows in continuum computation = 64 
Number of layers in phi-ro-z = 128  


Mean number of collisions per e = 935.058100 
Mean distance between collisions = 17.399915 
Mean polar angle of collision = 6.241020 
Mean azimuthal angle of collision = 180.012217 
Backscattering coefficient = 0.432500 
Internal electron coefficient = 0.567400 


Specimen spectra and background 
 0.014648 7.095984e+004 7.095984e+004 
 0.043945 2.128795e+005 2.128795e+005 
 0.073242 3.547992e+005 3.547992e+005 
 0.102539 4.967189e+005 4.967189e+005 
 0.131836 6.386385e+005 6.386385e+005 
 0.161133 7.805582e+005 7.805582e+005 
 0.190430 9.225728e+005 9.224779e+005 
 0.219727 1.067437e+006 1.064398e+006 
 0.249023 1.140985e+006 1.115405e+006 
 0.278320 1.133269e+006 1.075499e+006 
 0.307617 1.071068e+006 1.035593e+006 
 0.336914 1.001563e+006 9.956877e+005 
 0.366211 9.560274e+005 9.557820e+005 
 0.395508 9.158830e+005 9.158764e+005 
 0.424805 8.759708e+005 8.759708e+005 
 0.454102 8.360651e+005 8.360651e+005 
 0.483398 7.961595e+005 7.961595e+005 
 0.512695 7.562539e+005 7.562539e+005 
 0.541992 7.163482e+005 7.163482e+005 
 0.571289 6.764426e+005 6.764426e+005 
 0.600586 6.365369e+005 6.365369e+005 
 0.629883 5.966313e+005 5.966313e+005 
 0.659180 5.567257e+005 5.567257e+005 
 0.688477 5.168200e+005 5.168200e+005 
 0.717773 5.131538e+005 5.131538e+005 
 0.747070 5.457268e+005 5.457268e+005 
 0.776367 5.782999e+005 5.782999e+005 
 0.805664 6.108730e+005 6.108730e+005 
 0.834961 6.434461e+005 6.434461e+005 
 0.864258 6.760192e+005 6.760192e+005 
 0.893555 7.085923e+005 7.085923e+005 
 0.922852 7.411654e+005 7.411654e+005 
 0.952148 7.737385e+005 7.737385e+005 
 0.981445 8.063116e+005 8.063116e+005 
 1.010742 8.388847e+005 8.388847e+005 
 1.040039 8.714578e+005 8.714578e+005 
 1.069336 9.040308e+005 9.040308e+005 
 1.098633 9.366039e+005 9.366039e+005 
 1.127930 9.691770e+005 9.691770e+005 
 1.157227 1.001750e+006 1.001750e+006 
 1.186523 1.037556e+006 1.037556e+006 
 1.215820 1.076593e+006 1.076593e+006 
 1.245117 1.115631e+006 1.115631e+006 
 1.274414 1.154669e+006 1.154669e+006 
 1.303711 1.193707e+006 1.193707e+006 
 1.333008 1.232745e+006 1.232745e+006 
 1.362305 1.271783e+006 1.271783e+006 
 1.391602 1.310820e+006 1.310820e+006 
 1.420898 1.349858e+006 1.349858e+006 
 1.450195 1.388896e+006 1.388896e+006 
 1.479492 1.427934e+006 1.427934e+006 
 1.508789 1.466972e+006 1.466972e+006 
 1.538086 1.506010e+006 1.506010e+006 
 1.567383 1.545047e+006 1.545047e+006 
 1.596680 1.584085e+006 1.584085e+006 
 1.625977 1.623123e+006 1.623123e+006 
 1.655273 1.653475e+006 1.653475e+006 
 1.684570 1.675140e+006 1.675140e+006 
 1.713867 1.696805e+006 1.696805e+006 
 1.743164 1.718471e+006 1.718471e+006 
 1.772461 1.740136e+006 1.740136e+006 
 1.801758 1.761802e+006 1.761802e+006 
 1.831055 1.783467e+006 1.783467e+006 
 1.860352 1.805132e+006 1.805132e+006 
 1.889648 1.826798e+006 1.826798e+006 
 1.918945 1.848463e+006 1.848463e+006 
 1.948242 1.870128e+006 1.870128e+006 
 1.977539 1.914084e+006 1.891794e+006 
 2.006836 2.155473e+006 1.913459e+006 
 2.036133 3.713679e+006 1.935124e+006 
 2.065430 9.025664e+006 1.956790e+006 
 2.094727 1.806627e+007 1.978455e+006 
 2.124023 2.288163e+007 1.949542e+006 
 2.153320 1.733901e+007 1.870050e+006 
 2.182617 8.321630e+006 1.790559e+006 
 2.211914 3.293123e+006 1.711067e+006 
 2.241211 1.837387e+006 1.631575e+006 
 2.270508 1.571004e+006 1.552084e+006 
 2.299805 1.472592e+006 1.472592e+006 
 2.329102 1.393100e+006 1.393100e+006 
 2.358398 1.313608e+006 1.313608e+006 
 2.387695 1.234117e+006 1.234117e+006 
 2.416992 1.154625e+006 1.154625e+006 
 2.446289 1.075133e+006 1.075133e+006 
 2.475586 9.956418e+005 9.956418e+005 
 2.504883 9.161501e+005 9.161501e+005 
 2.534180 8.366584e+005 8.366584e+005 
 2.563477 7.571667e+005 7.571667e+005 
 2.592773 7.166487e+005 7.166487e+005 
 2.622070 7.151043e+005 7.151043e+005 
 2.651367 7.135598e+005 7.135598e+005 
 2.680664 7.120154e+005 7.120154e+005 
 2.709961 7.104710e+005 7.104710e+005 
 2.739258 7.089266e+005 7.089266e+005 
 2.768555 7.073822e+005 7.073822e+005 
 2.797852 7.058377e+005 7.058377e+005 
 2.827148 7.042933e+005 7.042933e+005 
 2.856445 7.027489e+005 7.027489e+005 
 2.885742 7.012045e+005 7.012045e+005 
 2.915039 6.996601e+005 6.996601e+005 
 2.944336 6.981156e+005 6.981156e+005 
 2.973633 6.965712e+005 6.965712e+005 
 3.002930 6.950268e+005 6.950268e+005 
 3.032227 6.934824e+005 6.934824e+005 
 3.061523 6.935600e+005 6.935600e+005 
 3.090820 6.952597e+005 6.952597e+005 
 3.120117 6.969594e+005 6.969594e+005 
 3.149414 6.986590e+005 6.986590e+005 
 3.178711 7.003587e+005 7.003587e+005 
 3.208008 7.020584e+005 7.020584e+005 
 3.237305 7.037581e+005 7.037581e+005 
 3.266602 7.054578e+005 7.054578e+005 
 3.295898 7.071574e+005 7.071574e+005 
 3.325195 7.088571e+005 7.088571e+005 
 3.354492 7.105568e+005 7.105568e+005 
 3.383789 7.122565e+005 7.122565e+005 
 3.413086 7.139561e+005 7.139561e+005 
 3.442383 7.156558e+005 7.156558e+005 
 3.471680 7.173555e+005 7.173555e+005 
 3.500977 7.190552e+005 7.190552e+005 
 3.530273 7.219446e+005 7.219446e+005 
 3.559570 7.260236e+005 7.260236e+005 
 3.588867 7.301027e+005 7.301027e+005 
 3.618164 7.341817e+005 7.341817e+005 
 3.647461 7.382608e+005 7.382608e+005 
 3.676758 7.423399e+005 7.423399e+005 
 3.706055 7.464189e+005 7.464189e+005 
 3.735352 7.504980e+005 7.504980e+005 
 3.764648 7.545770e+005 7.545770e+005 
 3.793945 7.586561e+005 7.586561e+005 
 3.823242 7.627351e+005 7.627351e+005 
 3.852539 7.668142e+005 7.668142e+005 
 3.881836 7.708933e+005 7.708933e+005 
 3.911133 7.749723e+005 7.749723e+005 
 3.940430 7.790514e+005 7.790514e+005 
 3.969727 7.831304e+005 7.831304e+005 
 3.999023 7.862689e+005 7.862689e+005 
 4.028320 7.884668e+005 7.884668e+005 
 4.057617 7.906646e+005 7.906646e+005 
 4.086914 7.928625e+005 7.928625e+005 
 4.116211 7.950603e+005 7.950603e+005 
 4.145508 7.972582e+005 7.972582e+005 
 4.174805 7.994560e+005 7.994560e+005 
 4.204102 8.016539e+005 8.016539e+005 
 4.233398 8.038518e+005 8.038518e+005 
 4.262695 8.060496e+005 8.060496e+005 
 4.291992 8.082475e+005 8.082475e+005 
 4.321289 8.104453e+005 8.104453e+005 
 4.350586 8.126432e+005 8.126432e+005 
 4.379883 8.148410e+005 8.148410e+005 
 4.409180 8.170389e+005 8.170389e+005 
 4.438477 8.192367e+005 8.192367e+005 
 4.467773 8.206267e+005 8.206267e+005 
 4.497070 8.212088e+005 8.212088e+005 
 4.526367 8.217908e+005 8.217908e+005 
 4.555664 8.223729e+005 8.223729e+005 
 4.584961 8.229550e+005 8.229550e+005 
 4.614258 8.235370e+005 8.235370e+005 
 4.643555 8.241191e+005 8.241191e+005 
 4.672852 8.247012e+005 8.247012e+005 
 4.702148 8.252833e+005 8.252833e+005 
 4.731445 8.258653e+005 8.258653e+005 
 4.760742 8.264474e+005 8.264474e+005 
 4.790039 8.270295e+005 8.270295e+005 
 4.819336 8.276115e+005 8.276115e+005 
 4.848633 8.281936e+005 8.281936e+005 
 4.877930 8.287757e+005 8.287757e+005 
 4.907227 8.293577e+005 8.293577e+005 
 4.936523 8.292457e+005 8.292457e+005 
 4.965820 8.284396e+005 8.284396e+005 
 4.995117 8.276334e+005 8.276334e+005 
 5.024414 8.268273e+005 8.268273e+005 
 5.053711 8.260211e+005 8.260211e+005 
 5.083008 8.252150e+005 8.252150e+005 
 5.112305 8.244089e+005 8.244089e+005 
 5.141602 8.236027e+005 8.236027e+005 
 5.170898 8.227966e+005 8.227966e+005 
 5.200195 8.219905e+005 8.219905e+005 
 5.229492 8.211843e+005 8.211843e+005 
 5.258789 8.203782e+005 8.203782e+005 
 5.288086 8.195720e+005 8.195720e+005 
 5.317383 8.187659e+005 8.187659e+005 
 5.346680 8.179598e+005 8.179598e+005 
 5.375977 8.171536e+005 8.171536e+005 
 5.405273 8.160570e+005 8.160570e+005 
 5.434570 8.146700e+005 8.146700e+005 
 5.463867 8.132829e+005 8.132829e+005 
 5.493164 8.118959e+005 8.118959e+005 
 5.522461 8.105088e+005 8.105088e+005 
 5.551758 8.091218e+005 8.091218e+005 
 5.581055 8.077347e+005 8.077347e+005 
 5.610352 8.063477e+005 8.063477e+005 
 5.639648 8.049606e+005 8.049606e+005 
 5.668945 8.035736e+005 8.035736e+005 
 5.698242 8.021865e+005 8.021865e+005 
 5.727539 8.007995e+005 8.007995e+005 
 5.756836 7.994124e+005 7.994124e+005 
 5.786133 7.980254e+005 7.980254e+005 
 5.815430 7.966383e+005 7.966383e+005 
 5.844727 7.952513e+005 7.952513e+005 
 5.874023 7.936548e+005 7.936548e+005 
 5.903320 7.918487e+005 7.918487e+005 
 5.932617 7.900427e+005 7.900427e+005 
 5.961914 7.882367e+005 7.882367e+005 
 5.991211 7.864307e+005 7.864307e+005 
 6.020508 7.846247e+005 7.846247e+005 
 6.049805 7.828187e+005 7.828187e+005 
 6.079102 7.810126e+005 7.810126e+005 
 6.108398 7.792066e+005 7.792066e+005 
 6.137695 7.774006e+005 7.774006e+005 
 6.166992 7.755946e+005 7.755946e+005 
 6.196289 7.737886e+005 7.737886e+005 
 6.225586 7.719826e+005 7.719826e+005 
 6.254883 7.701766e+005 7.701766e+005 
 6.284180 7.683705e+005 7.683705e+005 
 6.313477 7.665645e+005 7.665645e+005 
 6.342773 7.645944e+005 7.645944e+005 
 6.372070 7.624603e+005 7.624603e+005 
 6.401367 7.603262e+005 7.603262e+005 
 6.430664 7.581920e+005 7.581920e+005 
 6.459961 7.560579e+005 7.560579e+005 
 6.489258 7.539238e+005 7.539238e+005 
 6.518555 7.517896e+005 7.517896e+005 
 6.547852 7.496555e+005 7.496555e+005 
 6.577148 7.475214e+005 7.475214e+005 
 6.606445 7.453872e+005 7.453872e+005 
 6.635742 7.432531e+005 7.432531e+005 
 6.665039 7.411190e+005 7.411190e+005 
 6.694336 7.389848e+005 7.389848e+005 
 6.723633 7.368507e+005 7.368507e+005 
 6.752930 7.347166e+005 7.347166e+005 
 6.782227 7.325824e+005 7.325824e+005 
 6.811523 7.303648e+005 7.303648e+005 
 6.840820 7.280636e+005 7.280636e+005 
 6.870117 7.257623e+005 7.257623e+005 
 6.899414 7.234611e+005 7.234611e+005 
 6.928711 7.211599e+005 7.211599e+005 
 6.958008 7.188587e+005 7.188587e+005 
 6.987305 7.165575e+005 7.165575e+005 
 7.016602 7.142563e+005 7.142563e+005 
 7.045898 7.119551e+005 7.119551e+005 
 7.075195 7.096539e+005 7.096539e+005 
 7.104492 7.073527e+005 7.073527e+005 
 7.133789 7.050515e+005 7.050515e+005 
 7.163086 7.027502e+005 7.027502e+005 
 7.192383 7.004490e+005 7.004490e+005 
 7.221680 6.981478e+005 6.981478e+005 
 7.250977 6.958466e+005 6.958466e+005 
 7.280273 6.935168e+005 6.935168e+005 
 7.309570 6.911585e+005 6.911585e+005 
 7.338867 6.888002e+005 6.888002e+005 
 7.368164 6.864418e+005 6.864418e+005 
 7.397461 6.840835e+005 6.840835e+005 
 7.426758 6.817251e+005 6.817251e+005 
 7.456055 6.793668e+005 6.793668e+005 
 7.485352 6.770085e+005 6.770085e+005 
 7.514648 6.746501e+005 6.746501e+005 
 7.543945 6.722918e+005 6.722918e+005 
 7.573242 6.699334e+005 6.699334e+005 
 7.602539 6.675751e+005 6.675751e+005 
 7.631836 6.652167e+005 6.652167e+005 
 7.661133 6.628584e+005 6.628584e+005 
 7.690430 6.605001e+005 6.605001e+005 
 7.719727 6.581417e+005 6.581417e+005 
 7.749023 6.557939e+005 6.557939e+005 
 7.778320 6.534564e+005 6.534564e+005 
 7.807617 6.511190e+005 6.511190e+005 
 7.836914 6.487816e+005 6.487816e+005 
 7.866211 6.464442e+005 6.464442e+005 
 7.895508 6.441068e+005 6.441068e+005 
 7.924805 6.417694e+005 6.417694e+005 
 7.954102 6.394320e+005 6.394320e+005 
 7.983398 6.370946e+005 6.370946e+005 
 8.012695 6.347572e+005 6.347572e+005 
 8.041992 6.324198e+005 6.324198e+005 
 8.071289 6.300824e+005 6.300824e+005 
 8.100586 6.277450e+005 6.277450e+005 
 8.129883 6.254075e+005 6.254075e+005 
 8.159180 6.230701e+005 6.230701e+005 
 8.188477 6.207327e+005 6.207327e+005 
 8.217773 6.184294e+005 6.184294e+005 
 8.247070 6.161601e+005 6.161601e+005 
 8.276367 6.138908e+005 6.138908e+005 
 8.305664 6.116215e+005 6.116215e+005 
 8.334961 6.093522e+005 6.093522e+005 
 8.364258 6.070830e+005 6.070830e+005 
 8.393555 6.048137e+005 6.048137e+005 
 8.422852 6.025444e+005 6.025444e+005 
 8.452148 6.002751e+005 6.002751e+005 
 8.481445 5.980058e+005 5.980058e+005 
 8.510742 5.957365e+005 5.957365e+005 
 8.540039 5.934672e+005 5.934672e+005 
 8.569336 5.911980e+005 5.911980e+005 
 8.598633 5.889287e+005 5.889287e+005 
 8.627930 5.866594e+005 5.866594e+005 
 8.657227 5.843901e+005 5.843901e+005 
 8.686523 5.821709e+005 5.821709e+005 
 8.715820 5.800019e+005 5.800019e+005 
 8.745117 5.778328e+005 5.778328e+005 
 8.774414 5.756637e+005 5.756637e+005 
 8.803711 5.734947e+005 5.734947e+005 
 8.833008 5.713256e+005 5.713256e+005 
 8.862305 5.691566e+005 5.691566e+005 
 8.891602 5.669875e+005 5.669875e+005 
 8.920898 5.648184e+005 5.648184e+005 
 8.950195 5.626494e+005 5.626494e+005 
 8.979492 5.604803e+005 5.604803e+005 
 9.008789 5.583112e+005 5.583112e+005 
 9.038086 5.561422e+005 5.561422e+005 
 9.067383 5.539731e+005 5.539731e+005 
 9.096680 5.518041e+005 5.518041e+005 
 9.125977 5.496350e+005 5.496350e+005 
 9.155273 5.475211e+005 5.475211e+005 
 9.184570 5.454624e+005 5.454624e+005 
 9.213867 5.434037e+005 5.434037e+005 
 9.243164 5.413450e+005 5.413450e+005 
 9.272461 5.392863e+005 5.392863e+005 
 9.301758 5.372276e+005 5.372276e+005 
 9.331055 5.351688e+005 5.351688e+005 
 9.360352 5.331101e+005 5.331101e+005 
 9.389648 5.310514e+005 5.310514e+005 
 9.418945 5.289927e+005 5.289927e+005 
 9.448242 5.269340e+005 5.269340e+005 
 9.477539 7.617147e+005 5.248753e+005 
 9.506836 1.374295e+006 5.228166e+005 
 9.536133 3.187723e+006 5.207579e+005 
 9.565430 7.236780e+006 5.186992e+005 
 9.594727 1.477341e+007 5.166405e+005 
 9.624023 2.651784e+007 5.146422e+005 
 9.653320 4.011650e+007 5.127046e+005 
 9.682617 5.188614e+007 5.107669e+005 
 9.711914 5.665597e+007 5.088292e+005 
 9.741211 5.255221e+007 5.068915e+005 
 9.770508 4.109125e+007 5.049538e+005 
 9.799805 2.749710e+007 5.030161e+005 
 9.829102 1.549179e+007 5.010784e+005 
 9.858398 7.638145e+006 4.991407e+005 
 9.887695 3.374786e+006 4.972030e+005 
 9.916992 1.427910e+006 4.952653e+005 
 9.946289 7.541702e+005 4.933276e+005 
 9.975586 4.913899e+005 4.913899e+005 
 10.004883 4.894522e+005 4.894522e+005 
 10.034180 4.875145e+005 4.875145e+005 
 10.063477 4.855768e+005 4.855768e+005 
 10.092773 4.836986e+005 4.836986e+005 
 10.122070 4.818800e+005 4.818800e+005 
 10.151367 4.800613e+005 4.800613e+005 
 10.180664 4.782427e+005 4.782427e+005 
 10.209961 4.764240e+005 4.764240e+005 
 10.239258 4.746054e+005 4.746054e+005 
 10.268555 4.727867e+005 4.727867e+005 
 10.297852 4.709680e+005 4.709680e+005 
 10.327148 4.691494e+005 4.691494e+005 
 10.356445 4.673307e+005 4.673307e+005 
 10.385742 4.655121e+005 4.655121e+005 
 10.415039 4.636934e+005 4.636934e+005 
 10.444336 4.618748e+005 4.618748e+005 
 10.473633 4.600561e+005 4.600561e+005 
 10.502930 4.582375e+005 4.582375e+005 
 10.532227 4.564188e+005 4.564188e+005 
 10.561523 4.546582e+005 4.546582e+005 
 10.590820 4.529557e+005 4.529557e+005 
 10.620117 4.512531e+005 4.512531e+005 
 10.649414 4.495506e+005 4.495506e+005 
 10.678711 4.478480e+005 4.478480e+005 
 10.708008 4.461455e+005 4.461455e+005 
 10.737305 4.444429e+005 4.444429e+005 
 10.766602 4.427404e+005 4.427404e+005 
 10.795898 4.410379e+005 4.410379e+005 
 10.825195 4.393353e+005 4.393353e+005 
 10.854492 4.376328e+005 4.376328e+005 
 10.883789 4.359302e+005 4.359302e+005 
 10.913086 4.342277e+005 4.342277e+005 
 10.942383 4.325251e+005 4.325251e+005 
 10.971680 4.308226e+005 4.308226e+005 
 11.000977 4.291201e+005 4.291201e+005 
 11.030273 4.274742e+005 4.274742e+005 
 11.059570 4.258849e+005 4.258849e+005 
 11.088867 4.242957e+005 4.242957e+005 
 11.118164 4.227065e+005 4.227065e+005 
 11.147461 4.211172e+005 4.211172e+005 
 11.176758 5.039928e+005 4.195280e+005 
 11.206055 6.990532e+005 4.179388e+005 
 11.235352 1.282347e+006 4.163495e+005 
 11.264648 2.655522e+006 4.147603e+005 
 11.293945 5.268568e+006 4.131711e+005 
 11.323242 9.717764e+006 4.115818e+005 
 11.352539 1.588724e+007 4.099926e+005 
 11.381836 2.259069e+007 4.084034e+005 
 11.411133 2.847179e+007 4.068141e+005 
 11.440430 3.148501e+007 4.052249e+005 
 11.469727 3.145381e+007 4.036357e+005 
 11.499023 2.883499e+007 4.013766e+005 
 11.528320 2.524404e+007 3.984477e+005 
 11.557617 2.148747e+007 3.955188e+005 
 11.586914 1.782873e+007 3.925899e+005 
 11.616211 1.419594e+007 3.896610e+005 
 11.645508 1.039935e+007 3.867322e+005 
 11.674805 6.971359e+006 3.838033e+005 
 11.704102 4.181259e+006 3.808744e+005 
 11.733398 2.293727e+006 3.779455e+005 
 11.762695 1.238407e+006 3.750166e+005 
 11.791992 6.960843e+005 3.720877e+005 
 11.821289 4.727540e+005 3.691588e+005 
 11.850586 3.974884e+005 3.662299e+005 
 11.879883 3.633011e+005 3.633011e+005 
 11.909180 3.603722e+005 3.603722e+005 
 11.938477 3.574433e+005 3.574433e+005 
 11.967773 3.550702e+005 3.550702e+005 
 11.997070 3.532529e+005 3.532529e+005 
 12.026367 3.514356e+005 3.514356e+005 
 12.055664 3.496183e+005 3.496183e+005 
 12.084961 3.478010e+005 3.478010e+005 
 12.114258 3.459837e+005 3.459837e+005 
 12.143555 3.441664e+005 3.441664e+005 
 12.172852 3.423491e+005 3.423491e+005 
 12.202148 3.405318e+005 3.405318e+005 
 12.231445 3.387145e+005 3.387145e+005 
 12.260742 3.368972e+005 3.368972e+005 
 12.290039 3.350799e+005 3.350799e+005 
 12.319336 3.332626e+005 3.332626e+005 
 12.348633 3.314453e+005 3.314453e+005 
 12.377930 3.296280e+005 3.296280e+005 
 12.407227 3.278108e+005 3.278108e+005 
 12.436523 3.263939e+005 3.263939e+005 
 12.465820 3.253774e+005 3.253774e+005 
 12.495117 3.243609e+005 3.243609e+005 
 12.524414 3.233444e+005 3.233444e+005 
 12.553711 3.223279e+005 3.223279e+005 
 12.583008 3.213114e+005 3.213114e+005 
 12.612305 3.202949e+005 3.202949e+005 
 12.641602 3.192784e+005 3.192784e+005 
 12.670898 3.182619e+005 3.182619e+005 
 12.700195 3.172454e+005 3.172454e+005 
 12.729492 3.162289e+005 3.162289e+005 
 12.758789 3.152124e+005 3.152124e+005 
 12.788086 3.141959e+005 3.141959e+005 
 12.817383 3.131794e+005 3.131794e+005 
 12.846680 3.121629e+005 3.121629e+005 
 12.875977 3.111464e+005 3.111464e+005 
 12.905273 3.101503e+005 3.101503e+005 
 12.934570 3.091747e+005 3.091747e+005 
 12.963867 3.081991e+005 3.081991e+005 
 12.993164 3.072235e+005 3.072235e+005 
 13.022461 3.062478e+005 3.062478e+005 
 13.051758 3.052722e+005 3.052722e+005 
 13.081055 3.042966e+005 3.042966e+005 
 13.110352 3.268204e+005 3.033210e+005 
 13.139648 3.732481e+005 3.023453e+005 
 13.168945 4.949455e+005 3.013697e+005 
 13.198242 7.489633e+005 3.003941e+005 
 13.227539 1.199008e+006 2.994185e+005 
 13.256836 1.919268e+006 2.984428e+005 
 13.286133 2.874552e+006 2.974672e+005 
 13.315430 3.876905e+006 2.964916e+005 
 13.344727 4.724641e+006 2.955160e+005 
 13.374023 5.100750e+006 2.943001e+005 
 13.403320 4.923115e+006 2.928439e+005 
 13.432617 4.189523e+006 2.913877e+005 
 13.461914 3.212645e+006 2.899315e+005 
 13.491211 2.215595e+006 2.884753e+005 
